#TKE[MeV]   range[mm] using 241Am:110=16O:220=9.012Be:890 for 4He 2.9266g/cm3
6.00    0.04144437
5.75    0.03900272
5.5445  0.03704365
5.50    0.03662513
5.48556 0.03648976
5.44280 0.03609014
5.25    0.03431161
5.00    0.03206211
4.75    0.02987317
4.50    0.02775066
4.25    0.02569461
4.00    0.02370498
3.75    0.02178118
3.50    0.01992561
3.25    0.0181392
3.00    0.0164225
2.75    0.01477709
2.50    0.01320344
2.25    0.01170258
2.00    0.01027469
1.75    0.00891986
1.50    0.00763686
1.25    0.00642261
1.00    0.00527054
0.75    0.0041676
0.50    0.00308264
0.25    0.00193115
0.10    0.0010908


****************************************
Minimizer is Linear / Migrad
Chi2                      =  1.94585e-07
NDf                       =           25
p0                        =   0.00105601   +/-   4.97788e-05
p1                        =   0.00354792   +/-   3.78945e-05
p2                        =  0.000530302   +/-   5.91254e-06
